     Angle,       PSD,
        20,      1421,
   20.0499,      1350,
   20.0997,      1382,
   20.1496,      1389,
   20.1995,      1364,
   20.2493,      1333,
   20.2992,      1273,
   20.3491,      1308,
   20.3989,      1298,
   20.4488,      1323,
   20.4987,      1350,
   20.5486,      1327,
   20.5984,      1356,
   20.6483,      1265,
   20.6982,      1266,
    20.748,      1289,
   20.7979,      1322,
   20.8478,      1362,
   20.8976,      1309,
   20.9475,      1353,
   20.9974,      1303,
   21.0472,      1224,
   21.0971,      1262,
    21.147,      1297,
   21.1968,      1312,
   21.2467,      1336,
   21.2966,      1332,
   21.3464,      1316,
   21.3963,      1326,
   21.4462,      1345,
    21.496,      1294,
   21.5459,      1337,
   21.5958,      1317,
   21.6457,      1258,
   21.6955,      1319,
   21.7454,      1243,
   21.7953,      1231,
   21.8451,      1239,
    21.895,      1275,
   21.9449,      1247,
   21.9947,      1259,
   22.0446,      1267,
   22.0945,      1207,
   22.1443,      1272,
   22.1942,      1227,
   22.2441,      1226,
   22.2939,      1303,
   22.3438,      1235,
   22.3937,      1254,
   22.4435,      1224,
   22.4934,      1193,
   22.5433,      1315,
   22.5932,      1253,
    22.643,      1187,
   22.6929,      1357,
   22.7428,      1271,
   22.7926,      1236,
   22.8425,      1187,
   22.8924,      1289,
   22.9422,      1228,
   22.9921,      1228,
    23.042,      1209,
   23.0918,      1182,
   23.1417,      1205,
   23.1916,      1179,
   23.2414,      1215,
   23.2913,      1205,
   23.3412,      1173,
    23.391,      1203,
   23.4409,      1142,
   23.4908,      1160,
   23.5406,      1246,
   23.5905,      1206,
   23.6404,      1183,
   23.6903,      1200,
   23.7401,      1126,
     23.79,      1169,
   23.8399,      1241,
   23.8897,      1178,
   23.9396,      1133,
   23.9895,      1136,
   24.0393,      1167,
   24.0892,      1189,
   24.1391,      1182,
   24.1889,      1141,
   24.2388,      1149,
   24.2887,      1109,
   24.3385,      1257,
   24.3884,      1095,
   24.4383,      1150,
   24.4881,      1099,
    24.538,      1097,
   24.5879,      1156,
   24.6378,      1194,
   24.6876,      1075,
   24.7375,      1056,
   24.7874,      1130,
   24.8372,      1110,
   24.8871,      1133,
    24.937,      1126,
   24.9868,      1163,
   25.0367,      1114,
   25.0866,      1115,
   25.1364,      1055,
   25.1863,      1047,
   25.2362,      1078,
    25.286,      1050,
   25.3359,      1082,
   25.3858,      1086,
   25.4356,      1101,
   25.4855,      1081,
   25.5354,      1093,
   25.5852,      1108,
   25.6351,      1050,
    25.685,      1081,
   25.7349,      1052,
   25.7847,      1096,
   25.8346,      1007,
   25.8845,      1001,
   25.9343,      1052,
   25.9842,      1078,
   26.0341,      1083,
   26.0839,      1107,
   26.1338,       997,
   26.1837,      1118,
   26.2335,      1057,
   26.2834,      1050,
   26.3333,      1003,
   26.3831,      1074,
    26.433,      1008,
   26.4829,      1014,
   26.5327,      1069,
   26.5826,      1004,
   26.6325,      1034,
   26.6824,       992,
   26.7322,       990,
   26.7821,      1017,
    26.832,       988,
   26.8818,      1037,
   26.9317,      1029,
   26.9816,      1077,
   27.0314,       988,
   27.0813,       969,
   27.1312,       997,
    27.181,      1032,
   27.2309,       952,
   27.2808,      1073,
   27.3306,       973,
   27.3805,       984,
   27.4304,       980,
   27.4802,       957,
   27.5301,       971,
     27.58,       962,
   27.6298,       974,
   27.6797,       979,
   27.7296,       982,
   27.7795,       921,
   27.8293,      1018,
   27.8792,       914,
   27.9291,       952,
   27.9789,       955,
   28.0288,       975,
   28.0787,       964,
   28.1285,       910,
   28.1784,       916,
   28.2283,       921,
   28.2781,       923,
    28.328,       896,
   28.3779,       864,
   28.4277,       890,
   28.4776,       924,
   28.5275,       875,
   28.5773,       959,
   28.6272,       944,
   28.6771,       969,
    28.727,       863,
   28.7768,       904,
   28.8267,       971,
   28.8766,       858,
   28.9264,       834,
   28.9763,       911,
   29.0262,       866,
    29.076,       889,
   29.1259,       822,
   29.1758,       900,
   29.2256,       896,
   29.2755,       870,
   29.3254,       854,
   29.3752,       893,
   29.4251,       838,
    29.475,       904,
   29.5248,       878,
   29.5747,       816,
   29.6246,       862,
   29.6745,       820,
   29.7243,       874,
   29.7742,       858,
   29.8241,       840,
   29.8739,       845,
   29.9238,       832,
   29.9737,       811,
   30.0235,       889,
   30.0734,       879,
   30.1233,       829,
   30.1731,       821,
    30.223,       833,
   30.2729,       753,
   30.3227,       859,
   30.3726,       800,
   30.4225,       877,
   30.4723,       808,
   30.5222,       787,
   30.5721,       808,
   30.6219,       833,
   30.6718,       792,
   30.7217,       816,
   30.7716,       814,
   30.8214,       772,
   30.8713,       764,
   30.9212,       799,
    30.971,       752,
   31.0209,       835,
   31.0708,       778,
   31.1206,       787,
   31.1705,       778,
   31.2204,       781,
   31.2702,       790,
   31.3201,       813,
     31.37,       758,
   31.4198,       743,
   31.4697,       751,
   31.5196,       741,
   31.5694,       787,
   31.6193,       770,
   31.6692,       779,
   31.7191,       769,
   31.7689,       734,
   31.8188,       776,
   31.8687,       747,
   31.9185,       730,
   31.9684,       720,
   32.0183,       763,
   32.0681,       798,
    32.118,       756,
   32.1679,       758,
   32.2177,       744,
   32.2676,       748,
   32.3175,       758,
   32.3673,       745,
   32.4172,       725,
   32.4671,       771,
   32.5169,       760,
   32.5668,       721,
   32.6167,       740,
   32.6665,       716,
   32.7164,       797,
   32.7663,       718,
   32.8162,       712,
    32.866,       745,
   32.9159,       834,
   32.9658,      1647,
   33.0156,      1779,
   33.0655,      1241,
   33.1154,       997,
   33.1652,       696,
   33.2151,       676,
    33.265,       679,
   33.3148,       676,
   33.3647,       713,
   33.4146,       649,
   33.4644,       678,
   33.5143,       641,
   33.5642,       629,
    33.614,       706,
   33.6639,       646,
   33.7138,       699,
   33.7637,       669,
   33.8135,       660,
   33.8634,       613,
   33.9133,       672,
   33.9631,       672,
    34.013,       628,
   34.0629,       646,
   34.1127,       666,
   34.1626,       623,
   34.2125,       640,
   34.2623,       616,
   34.3122,       609,
   34.3621,       654,
   34.4119,       698,
   34.4618,       616,
   34.5117,       671,
   34.5615,       633,
   34.6114,       636,
   34.6613,       585,
   34.7111,       619,
    34.761,       618,
   34.8109,       585,
   34.8608,       602,
   34.9106,       605,
   34.9605,       639,
   35.0104,       622,
   35.0602,       641,
   35.1101,       592,
     35.16,       584,
   35.2098,       572,
   35.2597,       616,
   35.3096,       594,
   35.3594,       594,
   35.4093,       628,
   35.4592,       598,
    35.509,       594,
   35.5589,       638,
   35.6088,       591,
   35.6586,       622,
   35.7085,       601,
   35.7584,       571,
   35.8083,       604,
   35.8581,       574,
    35.908,       584,
   35.9579,       584,
   36.0077,       591,
   36.0576,       579,
   36.1075,       581,
   36.1573,       574,
   36.2072,       571,
   36.2571,       572,
   36.3069,       596,
   36.3568,       513,
   36.4067,       579,
   36.4565,       621,
   36.5064,       568,
   36.5563,       544,
   36.6061,       531,
    36.656,       576,
   36.7059,       551,
   36.7557,       550,
   36.8056,       572,
   36.8555,       571,
   36.9054,       549,
   36.9552,       549,
   37.0051,       555,
    37.055,       549,
   37.1048,       508,
   37.1547,       581,
   37.2046,       509,
   37.2544,       520,
   37.3043,       541,
   37.3542,       542,
    37.404,       523,
   37.4539,       550,
   37.5038,       557,
   37.5536,       508,
   37.6035,       546,
   37.6534,       521,
   37.7032,       549,
   37.7531,       573,
    37.803,       539,
   37.8529,       531,
   37.9027,       543,
   37.9526,       519,
   38.0025,       537,
   38.0523,       513,
   38.1022,       556,
   38.1521,       606,
   38.2019,       533,
   38.2518,       556,
   38.3017,       514,
   38.3515,       558,
   38.4014,       549,
   38.4513,       524,
   38.5011,       524,
    38.551,       482,
   38.6009,       482,
   38.6507,       500,
   38.7006,       508,
   38.7505,       511,
   38.8003,       537,
   38.8502,       477,
   38.9001,       495,
     38.95,       499,
   38.9998,       490,
   39.0497,       528,
   39.0996,       497,
   39.1494,       460,
   39.1993,       519,
   39.2492,       503,
    39.299,       473,
   39.3489,       487,
   39.3988,       477,
   39.4486,       465,
   39.4985,       520,
   39.5484,       503,
   39.5982,       490,
   39.6481,       499,
    39.698,       465,
   39.7478,       495,
   39.7977,       502,
   39.8476,       534,
   39.8975,       481,
   39.9473,       481,
   39.9972,       498,
   40.0471,       504,
   40.0969,       492,
   40.1468,       480,
   40.1967,       493,
   40.2465,       473,
   40.2964,       520,
   40.3463,       523,
   40.3961,       487,
    40.446,       527,
   40.4959,       497,
   40.5457,       553,
   40.5956,       536,
   40.6455,       537,
   40.6953,       513,
   40.7452,       525,
   40.7951,       550,
   40.8449,       501,
   40.8948,       514,
   40.9447,       556,
   40.9946,       515,
   41.0444,       523,
   41.0943,       524,
   41.1442,       544,
    41.194,       538,
   41.2439,       550,
   41.2938,       581,
   41.3436,       573,
   41.3935,       583,
   41.4434,       604,
   41.4932,       624,
   41.5431,       654,
    41.593,       614,
   41.6428,       656,
   41.6927,       631,
   41.7426,       683,
   41.7924,       732,
   41.8423,       745,
   41.8922,       830,
   41.9421,       940,
   41.9919,      1120,
   42.0418,      1251,
   42.0917,      1607,
   42.1415,      2098,
   42.1914,      2705,
   42.2413,      3859,
   42.2911,      5152,
    42.341,      6503,
   42.3909,      7834,
   42.4407,      8761,
   42.4906,      8295,
   42.5405,      7461,
   42.5903,      6019,
   42.6402,      4426,
   42.6901,      3136,
   42.7399,      2246,
   42.7898,      1759,
   42.8397,      1365,
   42.8895,      1112,
   42.9394,       939,
   42.9893,       846,
   43.0392,       799,
    43.089,       719,
   43.1389,       671,
   43.1888,       645,
   43.2386,       615,
   43.2885,       651,
   43.3384,       564,
   43.3882,       593,
   43.4381,       577,
    43.488,       543,
   43.5378,       548,
   43.5877,       572,
   43.6376,       504,
   43.6874,       532,
   43.7373,       545,
   43.7872,       515,
    43.837,       530,
   43.8869,       513,
   43.9368,       496,
   43.9867,       509,
   44.0365,       465,
   44.0864,       516,
   44.1363,       506,
   44.1861,       575,
    44.236,       858,
   44.2859,      1374,
   44.3357,      1246,
   44.3856,      1091,
   44.4355,       937,
   44.4853,       692,
   44.5352,       495,
   44.5851,       475,
   44.6349,       449,
   44.6848,       379,
   44.7347,       438,
   44.7845,       421,
   44.8344,       409,
   44.8843,       377,
   44.9341,       409,
    44.984,       402,
   45.0339,       390,
   45.0838,       375,
   45.1336,       396,
   45.1835,       394,
   45.2334,       389,
   45.2832,       370,
   45.3331,       383,
    45.383,       371,
   45.4328,       328,
   45.4827,       360,
   45.5326,       366,
   45.5824,       356,
   45.6323,       371,
   45.6822,       352,
    45.732,       365,
   45.7819,       331,
   45.8318,       287,
   45.8816,       372,
   45.9315,       352,
   45.9814,       314,
   46.0313,       313,
   46.0811,       338,
    46.131,       330,
   46.1809,       337,
   46.2307,       350,
   46.2806,       352,
   46.3305,       336,
   46.3803,       286,
   46.4302,       322,
   46.4801,       334,
   46.5299,       310,
   46.5798,       297,
   46.6297,       343,
   46.6795,       297,
   46.7294,       307,
   46.7793,       323,
   46.8291,       304,
    46.879,       307,
   46.9289,       309,
   46.9788,       309,
   47.0286,       283,
   47.0785,       307,
   47.1284,       336,
   47.1782,       286,
   47.2281,       283,
    47.278,       303,
   47.3278,       270,
   47.3777,       318,
   47.4276,       299,
   47.4774,       314,
   47.5273,       274,
   47.5772,       298,
    47.627,       300,
   47.6769,       266,
   47.7268,       298,
   47.7766,       299,
   47.8265,       307,
   47.8764,       305,
   47.9262,       307,
   47.9761,       291,
    48.026,       318,
   48.0759,       296,
   48.1257,       278,
   48.1756,       285,
   48.2255,       316,
   48.2753,       270,
   48.3252,       266,
   48.3751,       279,
   48.4249,       273,
   48.4748,       289,
   48.5247,       296,
   48.5745,       288,
   48.6244,       254,
   48.6743,       278,
   48.7241,       305,
    48.774,       279,
   48.8239,       267,
   48.8737,       319,
   48.9236,       323,
   48.9735,       352,
   49.0234,       341,
   49.0732,       365,
   49.1231,       419,
    49.173,       387,
   49.2228,       473,
   49.2727,       438,
   49.3226,       392,
   49.3724,       400,
   49.4223,       353,
   49.4722,       340,
    49.522,       334,
   49.5719,       310,
   49.6218,       302,
   49.6716,       273,
   49.7215,       260,
   49.7714,       282,
   49.8212,       283,
   49.8711,       287,
    49.921,       252,
   49.9708,       255,
   50.0207,       272,
   50.0706,       231,
   50.1205,       234,
   50.1703,       224,
   50.2202,       259,
   50.2701,       239,
   50.3199,       256,
   50.3698,       239,
   50.4197,       260,
   50.4695,       267,
   50.5194,       224,
   50.5693,       239,
   50.6191,       244,
    50.669,       233,
   50.7189,       241,
   50.7687,       242,
   50.8186,       235,
   50.8685,       221,
   50.9183,       209,
   50.9682,       212,
   51.0181,       246,
    51.068,       205,
   51.1178,       234,
   51.1677,       230,
   51.2176,       219,
   51.2674,       227,
   51.3173,       239,
   51.3672,       233,
    51.417,       218,
   51.4669,       227,
   51.5168,       216,
   51.5666,       234,
   51.6165,       240,
   51.6664,       242,
   51.7162,       214,
   51.7661,       227,
    51.816,       234,
   51.8658,       189,
   51.9157,       236,
   51.9656,       219,
   52.0154,       247,
   52.0653,       222,
   52.1152,       230,
   52.1651,       226,
   52.2149,       217,
   52.2648,       239,
   52.3147,       219,
   52.3645,       229,
   52.4144,       214,
   52.4643,       219,
   52.5141,       214,
    52.564,       227,
   52.6139,       207,
   52.6637,       211,
   52.7136,       191,
   52.7635,       238,
   52.8133,       208,
   52.8632,       196,
   52.9131,       226,
   52.9629,       214,
   53.0128,       209,
   53.0627,       215,
   53.1126,       220,
   53.1624,       223,
   53.2123,       200,
   53.2622,       189,
    53.312,       201,
   53.3619,       211,
   53.4118,       244,
   53.4616,       217,
   53.5115,       204,
   53.5614,       183,
   53.6112,       188,
   53.6611,       188,
    53.711,       200,
   53.7608,       191,
   53.8107,       201,
   53.8606,       210,
   53.9104,       217,
   53.9603,       191,
   54.0102,       206,
     54.06,       211,
   54.1099,       197,
   54.1598,       214,
   54.2097,       195,
   54.2595,       178,
   54.3094,       202,
   54.3593,       216,
   54.4091,       191,
    54.459,       211,
   54.5089,       226,
   54.5587,       167,
   54.6086,       208,
   54.6585,       186,
   54.7083,       207,
   54.7582,       179,
   54.8081,       196,
   54.8579,       212,
   54.9078,       194,
   54.9577,       208,
   55.0075,       204,
   55.0574,       194,
   55.1073,       185,
   55.1572,       199,
    55.207,       213,
   55.2569,       211,
   55.3068,       178,
   55.3566,       201,
   55.4065,       167,
   55.4564,       178,
   55.5062,       161,
   55.5561,       204,
    55.606,       176,
   55.6558,       189,
   55.7057,       191,
   55.7556,       203,
   55.8054,       179,
   55.8553,       202,
   55.9052,       199,
    55.955,       191,
   56.0049,       186,
   56.0548,       211,
   56.1046,       208,
   56.1545,       175,
   56.2044,       211,
   56.2543,       181,
   56.3041,       190,
    56.354,       204,
   56.4039,       204,
   56.4537,       177,
   56.5036,       172,
   56.5535,       200,
   56.6033,       197,
   56.6532,       173,
   56.7031,       184,
   56.7529,       193,
   56.8028,       200,
   56.8527,       198,
   56.9025,       179,
   56.9524,       199,
   57.0023,       167,
   57.0521,       186,
    57.102,       204,
   57.1519,       199,
   57.2018,       184,
   57.2516,       193,
   57.3015,       171,
   57.3514,       189,
   57.4012,       169,
   57.4511,       190,
    57.501,       192,
   57.5508,       190,
   57.6007,       177,
   57.6506,       186,
   57.7004,       181,
   57.7503,       201,
   57.8002,       181,
     57.85,       198,
   57.8999,       191,
   57.9498,       182,
   57.9996,       184,
   58.0495,       200,
   58.0994,       178,
   58.1492,       163,
   58.1991,       183,
    58.249,       192,
   58.2989,       180,
   58.3487,       149,
   58.3986,       174,
   58.4485,       174,
   58.4983,       168,
   58.5482,       156,
   58.5981,       181,
   58.6479,       166,
   58.6978,       174,
   58.7477,       187,
   58.7975,       189,
   58.8474,       154,
   58.8973,       150,
   58.9471,       187,
    58.997,       192,
   59.0469,       177,
   59.0967,       182,
   59.1466,       160,
   59.1965,       167,
   59.2464,       173,
   59.2962,       179,
   59.3461,       187,
    59.396,       165,
   59.4458,       193,
   59.4957,       184,
   59.5456,       180,
   59.5954,       172,
   59.6453,       188,
   59.6952,       175,
    59.745,       189,
   59.7949,       165,
   59.8448,       178,
   59.8946,       181,
   59.9445,       173,
   59.9944,       179,
